Time (s),PPG Signal Intensity
0.000000000000000000e+00,5.765166702767695739e+01
3.333333333333333287e-02,5.769360128633398688e+01
6.666666666666666574e-02,5.772014134951046316e+01
1.000000000000000056e-01,5.773232579232283257e+01
1.333333333333333315e-01,5.773119318988754145e+01
1.666666666666666574e-01,5.771778211732102193e+01
2.000000000000000111e-01,5.768235317692641217e+01
2.333333333333333370e-01,5.764255272805834096e+01
2.666666666666666630e-01,5.758948220297331488e+01
2.999999999999999889e-01,5.752291289850971623e+01
3.333333333333333148e-01,5.745193219321530620e+01
3.666666666666666408e-01,5.738737105497926905e+01
4.000000000000000222e-01,5.733768017452874233e+01
4.333333333333333481e-01,5.728479045562887251e+01
4.666666666666666741e-01,5.723477444640757028e+01
5.000000000000000000e-01,5.719134940092831698e+01
5.333333333333333259e-01,5.714328361980029314e+01
5.666666666666666519e-01,5.709331489768028689e+01
5.999999999999999778e-01,5.704966391525864111e+01
6.333333333333333037e-01,5.701159024060435598e+01
6.666666666666666297e-01,5.697085350277396998e+01
6.999999999999999556e-01,5.694517832747843755e+01
7.333333333333332815e-01,5.691356874076465999e+01
7.666666666666667185e-01,5.687208826025276664e+01
8.000000000000000444e-01,5.682368229950782990e+01
8.333333333333333703e-01,5.677180662864520855e+01
8.666666666666666963e-01,5.671473525757629375e+01
9.000000000000000222e-01,5.663940448746087242e+01
9.333333333333333481e-01,5.656120236004227309e+01
9.666666666666666741e-01,5.650531802372579904e+01
1.000000000000000000e+00,5.645184918485828973e+01
1.033333333333333437e+00,5.641079794750883281e+01
1.066666666666666652e+00,5.638281204259359214e+01
1.100000000000000089e+00,5.635203495716924493e+01
1.133333333333333304e+00,5.632629023433133852e+01
1.166666666666666741e+00,5.631298312998345779e+01
1.199999999999999956e+00,5.629720084755204823e+01
1.233333333333333393e+00,5.627573180655449647e+01
1.266666666666666607e+00,5.625031900823844211e+01
1.300000000000000044e+00,5.621825297357663942e+01
1.333333333333333259e+00,5.618495211609224071e+01
1.366666666666666696e+00,5.615125937029515768e+01
1.399999999999999911e+00,5.612993229950782847e+01
1.433333333333333348e+00,5.611433851204407830e+01
1.466666666666666563e+00,5.610941403200616406e+01
1.500000000000000000e+00,5.611332047803743706e+01
1.533333333333333437e+00,5.613261845081262180e+01
1.566666666666666652e+00,5.614975578858582850e+01
1.600000000000000089e+00,5.615605379446851231e+01
1.633333333333333304e+00,5.614314435046551210e+01
1.666666666666666741e+00,5.611186984655533649e+01
1.699999999999999956e+00,5.606637640968263270e+01
1.733333333333333393e+00,5.601399987889613641e+01
1.766666666666666607e+00,5.596223564092635883e+01
1.800000000000000044e+00,5.591918590822590573e+01
1.833333333333333259e+00,5.588177603905281643e+01
1.866666666666666696e+00,5.585495286101112100e+01
1.899999999999999911e+00,5.584241415572366662e+01
1.933333333333333348e+00,5.583983079015408890e+01
1.966666666666666563e+00,5.584114957970884774e+01
2.000000000000000000e+00,5.584047146394409822e+01
2.033333333333333215e+00,5.584964165481757448e+01
2.066666666666666874e+00,5.585421090439240999e+01
2.100000000000000089e+00,5.586500066215001681e+01
2.133333333333333304e+00,5.588541799532303855e+01
2.166666666666666519e+00,5.590694547542368298e+01
2.200000000000000178e+00,5.592850534424826492e+01
2.233333333333333393e+00,5.594937736108779092e+01
2.266666666666666607e+00,5.596308029615524759e+01
2.299999999999999822e+00,5.598191469851251867e+01
2.333333333333333481e+00,5.599715467129465907e+01
2.366666666666666696e+00,5.600346241339763509e+01
2.399999999999999911e+00,5.601542400259274501e+01
2.433333333333333126e+00,5.602468597966841202e+01
2.466666666666666785e+00,5.603357510524691776e+01
2.500000000000000000e+00,5.604334695968540814e+01
2.533333333333333215e+00,5.605307004589737829e+01
2.566666666666666874e+00,5.606321396770788823e+01
2.600000000000000089e+00,5.606605461344364727e+01
2.633333333333333304e+00,5.606700018121993878e+01
2.666666666666666519e+00,5.607158424204713754e+01
2.700000000000000178e+00,5.606795555056030622e+01
2.733333333333333393e+00,5.605941390131863500e+01
2.766666666666666607e+00,5.605336256813166074e+01
2.799999999999999822e+00,5.604687092690550543e+01
2.833333333333333481e+00,5.603808386828082888e+01
2.866666666666666696e+00,5.603201966237305243e+01
2.899999999999999911e+00,5.603733951572423422e+01
2.933333333333333126e+00,5.604705685168525520e+01
2.966666666666666785e+00,5.605732459992184857e+01
3.000000000000000000e+00,5.607314358376537200e+01
3.033333333333333215e+00,5.608644247658071436e+01
3.066666666666666874e+00,5.609635697644827701e+01
3.100000000000000089e+00,5.610695586508159494e+01
3.133333333333333304e+00,5.611485019725094503e+01
3.166666666666666519e+00,5.611697526346595311e+01
3.200000000000000178e+00,5.611626268975819443e+01
3.233333333333333393e+00,5.612459073024692913e+01
3.266666666666666607e+00,5.614352203740093472e+01
3.299999999999999822e+00,5.616676882074541766e+01
3.333333333333333481e+00,5.619174965324234705e+01
3.366666666666666696e+00,5.621274327482007749e+01
3.399999999999999911e+00,5.623991728351168007e+01
3.433333333333333126e+00,5.626533883789162616e+01
3.466666666666666785e+00,5.628702786954936954e+01
3.500000000000000000e+00,5.631019783041281812e+01
3.533333333333333215e+00,5.632810602852812565e+01
3.566666666666666874e+00,5.634508573536987797e+01
3.600000000000000089e+00,5.636862785073036264e+01
3.633333333333333304e+00,5.638324178672485232e+01
3.666666666666666519e+00,5.639367269833129370e+01
3.700000000000000178e+00,5.641006744782945503e+01
3.733333333333333393e+00,5.642193365691554874e+01
3.766666666666666607e+00,5.644363902451340209e+01
3.799999999999999822e+00,5.646612174326687494e+01
3.833333333333333481e+00,5.648763238645858564e+01
3.866666666666666696e+00,5.652314554407820424e+01
3.899999999999999911e+00,5.655740721621631195e+01
3.933333333333333126e+00,5.658816883695066480e+01
3.966666666666666785e+00,5.661086494664454705e+01
4.000000000000000000e+00,5.662370532229276421e+01
4.033333333333333215e+00,5.662895506178897165e+01
4.066666666666666430e+00,5.663072195707167111e+01
4.099999999999999645e+00,5.663131061722835824e+01
4.133333333333333748e+00,5.663244894909799854e+01
4.166666666666666963e+00,5.663592406096651644e+01
4.200000000000000178e+00,5.664029316260306501e+01
4.233333333333333393e+00,5.665659802086809549e+01
4.266666666666666607e+00,5.667102407177000600e+01
4.299999999999999822e+00,5.668227221600721322e+01
4.333333333333333037e+00,5.669319100591047089e+01
4.366666666666666252e+00,5.670192949233987179e+01
4.400000000000000355e+00,5.670798291652717182e+01
4.433333333333333570e+00,5.671529050529013460e+01
4.466666666666666785e+00,5.672993909525889933e+01
4.500000000000000000e+00,5.674346048357859473e+01
4.533333333333333215e+00,5.676072461002835468e+01
4.566666666666666430e+00,5.677910827112598469e+01
4.599999999999999645e+00,5.679734059607439889e+01
4.633333333333333748e+00,5.681234454719378846e+01
4.666666666666666963e+00,5.682842603870432896e+01
4.700000000000000178e+00,5.684595827060323359e+01
4.733333333333333393e+00,5.686203429501914286e+01
4.766666666666666607e+00,5.687839214707390312e+01
4.799999999999999822e+00,5.685133085636910266e+01
4.833333333333333037e+00,5.687349090763345316e+01
4.866666666666666252e+00,5.692854988691163953e+01
4.900000000000000355e+00,5.700728541544683026e+01
4.933333333333333570e+00,5.710347626627486761e+01
4.966666666666666785e+00,5.720080320550342634e+01
5.000000000000000000e+00,5.729273660540025759e+01
5.033333333333333215e+00,5.738168248856910481e+01
5.066666666666666430e+00,5.744918363861929578e+01
5.099999999999999645e+00,5.749022958312414033e+01
5.133333333333333748e+00,5.749296611446823846e+01
5.166666666666666963e+00,5.744957066971246462e+01
5.200000000000000178e+00,5.745486024712129591e+01
5.233333333333333393e+00,5.746136142853649176e+01
5.266666666666666607e+00,5.747246252753141249e+01
5.299999999999999822e+00,5.749074882642597117e+01
5.333333333333333037e+00,5.750521586964693910e+01
5.366666666666666252e+00,5.752006269080368384e+01
5.400000000000000355e+00,5.754442820288966232e+01
5.433333333333333570e+00,5.756350202478522959e+01
5.466666666666666785e+00,5.758037408867226503e+01
5.500000000000000000e+00,5.758705581489758885e+01
5.533333333333333215e+00,5.759173063820805538e+01
5.566666666666666430e+00,5.759524027336335195e+01
5.599999999999999645e+00,5.760118921287768501e+01
5.633333333333333748e+00,5.761022982707417128e+01
5.666666666666666963e+00,5.762263490437149471e+01
5.700000000000000178e+00,5.763389352539162047e+01
5.733333333333333393e+00,5.765064372316540187e+01
5.766666666666666607e+00,5.767092464034784882e+01
5.799999999999999822e+00,5.768693880600386592e+01
5.833333333333333037e+00,5.769997671583993792e+01
5.866666666666666252e+00,5.771020242625728969e+01
5.900000000000000355e+00,5.772396364795909562e+01
5.933333333333333570e+00,5.773355521896248632e+01
5.966666666666666785e+00,5.774421949491877371e+01
6.000000000000000000e+00,5.775511434722445614e+01
6.033333333333333215e+00,5.776381462933524347e+01
6.066666666666666430e+00,5.777108662753001767e+01
6.099999999999999645e+00,5.777948883318686768e+01
6.133333333333333748e+00,5.778856122623220415e+01
6.166666666666666963e+00,5.779927183091465537e+01
6.200000000000000178e+00,5.780951727514767668e+01
6.233333333333333393e+00,5.782520899112709145e+01
6.266666666666666607e+00,5.783965527681350238e+01
6.299999999999999822e+00,5.785140741747508741e+01
6.333333333333333037e+00,5.786398156086195854e+01
6.366666666666666252e+00,5.787660127063111304e+01
6.400000000000000355e+00,5.788494368674714252e+01
6.433333333333333570e+00,5.788798360917103736e+01
6.466666666666666785e+00,5.788964042199861382e+01
6.500000000000000000e+00,5.789564786595980905e+01
6.533333333333333215e+00,5.790229757374251562e+01
6.566666666666666430e+00,5.790853648708449697e+01
6.599999999999999645e+00,5.791914746431349670e+01
6.633333333333333748e+00,5.792643366388554682e+01
6.666666666666666963e+00,5.793989328057033106e+01
6.700000000000000178e+00,5.796022353229191992e+01
6.733333333333333393e+00,5.798473399861985200e+01
6.766666666666666607e+00,5.800988021617449419e+01
6.799999999999999822e+00,5.802943786505371548e+01
6.833333333333333037e+00,5.804870948251217300e+01
6.866666666666666252e+00,5.806636044402382169e+01
6.900000000000000355e+00,5.808333616489619544e+01
6.933333333333333570e+00,5.809619359526588056e+01
6.966666666666666785e+00,5.810367011943087334e+01
7.000000000000000000e+00,5.810398492388749503e+01
7.033333333333333215e+00,5.810143067985381293e+01
7.066666666666666430e+00,5.809316580500018290e+01
7.099999999999999645e+00,5.808647096646025432e+01
7.133333333333333748e+00,5.807899350570136221e+01
7.166666666666666963e+00,5.807133669810126975e+01
7.200000000000000178e+00,5.807089765337477871e+01
7.233333333333333393e+00,5.807879009057507602e+01
7.266666666666666607e+00,5.810095983449723178e+01
7.299999999999999822e+00,5.812763232982732831e+01
7.333333333333333037e+00,5.815659980693087761e+01
7.366666666666666252e+00,5.818466473423377039e+01
7.400000000000000355e+00,5.819826798505075516e+01
7.433333333333333570e+00,5.822464880888473004e+01
7.466666666666666785e+00,5.824922325782246446e+01
7.500000000000000000e+00,5.827114476646820407e+01
7.533333333333333215e+00,5.828956676942620163e+01
7.566666666666666430e+00,5.830364270130071702e+01
